# C_j, dσ/d(C_j) [pb]
0.000000000000000000e+00 4.556107666666667555e+00
1.199999999999999956e-01 4.644997833333333936e+00
2.399999999999999911e-01 5.058304666666667337e+00
3.599999999999999867e-01 6.086705500000000768e+00
4.799999999999999822e-01 7.460285666666667481e+00
5.999999999999999778e-01 9.040843666666667389e+00
7.199999999999999734e-01 1.113787300000000080e+01
8.399999999999999689e-01 1.332249483333333373e+01
9.599999999999999645e-01 1.574329200000000206e+01
1.080000000000000071e+00 1.854430550000000366e+01
1.199999999999999956e+00 2.198896166666666829e+01
1.319999999999999840e+00 2.528308850000000163e+01
1.439999999999999947e+00 2.842668600000000367e+01
1.560000000000000053e+00 3.171497333333333302e+01
1.679999999999999938e+00 3.442125716666667046e+01
1.799999999999999822e+00 3.607902633333333853e+01
1.919999999999999929e+00 3.742081366666666753e+01
2.040000000000000036e+00 3.795026166666666967e+01
2.160000000000000142e+00 3.736112100000000424e+01
2.279999999999999805e+00 3.602322666666667317e+01
2.399999999999999911e+00 3.369910566666666796e+01
2.520000000000000018e+00 3.071901416666667117e+01
2.639999999999999680e+00 2.782521750000000438e+01
2.759999999999999787e+00 2.447593983333333512e+01
2.879999999999999893e+00 2.110006000000000270e+01
3.000000000000000000e+00 1.791623483333333411e+01
3.120000000000000107e+00 1.497896633333333405e+01
3.239999999999999769e+00 1.231226133333333372e+01
3.359999999999999876e+00 1.009130483333333395e+01
3.479999999999999982e+00 8.188276666666666870e+00
3.599999999999999645e+00 6.514286666666667003e+00
3.719999999999999751e+00 5.144599500000000880e+00
3.839999999999999858e+00 4.035743333333333460e+00
3.959999999999999964e+00 3.050165500000000307e+00
4.080000000000000071e+00 2.255344666666666775e+00
4.200000000000000178e+00 1.622083333333333544e+00
4.320000000000000284e+00 1.097826000000000191e+00
4.439999999999999503e+00 7.325328333333334108e-01
4.559999999999999609e+00 4.217416666666666814e-01
4.679999999999999716e+00 2.167103333333333659e-01
4.799999999999999822e+00 1.025156666666666855e-01
4.919999999999999929e+00 4.541833333333333833e-02
5.040000000000000036e+00 1.751850000000000282e-02
5.160000000000000142e+00 4.541833333333333486e-03
5.279999999999999361e+00 1.297666666666666803e-03
5.399999999999999467e+00 0.000000000000000000e+00
5.519999999999999574e+00 0.000000000000000000e+00
5.639999999999999680e+00 0.000000000000000000e+00
5.759999999999999787e+00 0.000000000000000000e+00
5.879999999999999893e+00 0.000000000000000000e+00
