# pT [GeV], dσ/dpT [pb/GeV]
0.000000000000000000e+00 0.000000000000000000e+00
1.000000000000000000e+01 9.265340000000000164e-04
2.000000000000000000e+01 8.595744000000000648e-03
3.000000000000000000e+01 4.206775799999999677e-02
4.000000000000000000e+01 1.231433759999999988e-01
5.000000000000000000e+01 1.839987519999999876e-01
6.000000000000000000e+01 2.368656920000000166e-01
7.000000000000000000e+01 2.865637300000000165e-01
8.000000000000000000e+01 3.306714199999999937e-01
9.000000000000000000e+01 3.722097300000000164e-01
1.000000000000000000e+02 4.049420740000000407e-01
1.100000000000000000e+02 4.318271320000000024e-01
1.200000000000000000e+02 4.488706860000000742e-01
1.300000000000000000e+02 4.555977900000000025e-01
1.400000000000000000e+02 4.555121440000000632e-01
1.500000000000000000e+02 4.515957860000000545e-01
1.600000000000000000e+02 4.279107740000000493e-01
1.700000000000000000e+02 4.054481640000000553e-01
1.800000000000000000e+02 3.799334420000000101e-01
1.900000000000000000e+02 3.479485540000000210e-01
2.000000000000000000e+02 3.119694480000000381e-01
2.100000000000000000e+02 2.762628520000000032e-01
2.200000000000000000e+02 2.421601720000000069e-01
2.300000000000000000e+02 2.087971620000000361e-01
2.400000000000000000e+02 1.776843060000000141e-01
2.500000000000000000e+02 1.497169939999999921e-01
2.600000000000000000e+02 1.269273720000000105e-01
2.700000000000000000e+02 1.055236580000000063e-01
2.800000000000000000e+02 8.526448600000000044e-02
2.900000000000000000e+02 6.963019800000000425e-02
3.000000000000000000e+02 5.639399800000000074e-02
3.100000000000000000e+02 4.523665999999999798e-02
3.200000000000000000e+02 3.460098400000000129e-02
3.300000000000000000e+02 2.733664600000000264e-02
3.400000000000000000e+02 2.051611000000000060e-02
3.500000000000000000e+02 1.523720200000000004e-02
3.600000000000000000e+02 1.123519800000000006e-02
3.700000000000000000e+02 8.743678000000001255e-03
3.800000000000000000e+02 6.080865999999999875e-03
3.900000000000000000e+02 4.227797999999999626e-03
4.000000000000000000e+02 2.880820000000000082e-03
4.100000000000000000e+02 1.899784000000000281e-03
4.200000000000000000e+02 1.432623999999999963e-03
4.300000000000000000e+02 7.007400000000000434e-04
4.400000000000000000e+02 4.360160000000000077e-04
4.500000000000000000e+02 1.479340000000000104e-04
4.600000000000000000e+02 1.946500000000000151e-04
4.700000000000000000e+02 7.007400000000000705e-05
4.800000000000000000e+02 3.114399999999999862e-05
4.900000000000000000e+02 7.785999999999999654e-06
