# pT [GeV], dσ/dpT [pb/GeV]
0.000000000000000000e+00 0.000000000000000000e+00
8.000000000000000000e+00 3.937512375000000453e-03
1.600000000000000000e+01 7.492854431250000301e-03
2.400000000000000000e+01 9.377455942499999739e-03
3.200000000000000000e+01 1.073422491249999972e-02
4.000000000000000000e+01 1.158992613125000085e-02
4.800000000000000000e+01 1.207040558250000069e-02
5.600000000000000000e+01 1.249272308625000091e-02
6.400000000000000000e+01 1.249812751500000048e-02
7.200000000000000000e+01 1.247831127625000092e-02
8.000000000000000000e+01 1.228632537875000083e-02
8.800000000000000000e+01 1.193014778874999966e-02
9.600000000000000000e+01 1.140180053999999971e-02
1.040000000000000000e+02 1.100624782625000096e-02
1.120000000000000000e+02 1.052602572875000093e-02
1.200000000000000000e+02 9.904773776250000439e-03
1.280000000000000000e+02 9.389036861250000046e-03
1.360000000000000000e+02 8.827233624999999972e-03
1.440000000000000000e+02 8.208812563750000901e-03
1.520000000000000000e+02 7.558222283749999916e-03
1.600000000000000000e+02 7.007999966250000150e-03
1.680000000000000000e+02 6.464726200000000568e-03
1.760000000000000000e+02 5.903695024999999937e-03
1.840000000000000000e+02 5.378693375000000165e-03
1.920000000000000000e+02 4.873507963749999956e-03
2.000000000000000000e+02 4.398690295000000361e-03
2.080000000000000000e+02 3.949608001250000389e-03
2.160000000000000000e+02 3.574900941250000030e-03
2.240000000000000000e+02 3.135340736250000118e-03
2.320000000000000000e+02 2.794089663750000310e-03
2.400000000000000000e+02 2.446404747499999945e-03
2.480000000000000000e+02 2.123940498750000010e-03
2.560000000000000000e+02 1.877910313750000152e-03
2.640000000000000000e+02 1.641916924999999982e-03
2.720000000000000000e+02 1.396916155000000031e-03
2.800000000000000000e+02 1.171988977500000107e-03
2.880000000000000000e+02 9.805177875000000830e-04
2.960000000000000000e+02 8.549291575000000616e-04
3.040000000000000000e+02 6.945977712499999852e-04
3.120000000000000000e+02 5.934577474999999745e-04
3.200000000000000000e+02 5.008103975000000084e-04
3.280000000000000000e+02 3.978688974999999980e-04
3.360000000000000000e+02 3.332731062499999877e-04
3.440000000000000000e+02 2.614714100000000330e-04
3.520000000000000000e+02 2.148903812500000191e-04
3.600000000000000000e+02 1.690814137500000166e-04
3.680000000000000000e+02 1.276474599999999977e-04
3.760000000000000000e+02 1.037135612500000083e-04
3.840000000000000000e+02 7.823553999999999600e-05
3.920000000000000000e+02 5.738988625000000500e-05
