# pT [GeV], dσ/dpT [pb/GeV]
0.000000000000000000e+00 0.000000000000000000e+00
1.000000000000000000e+01 5.822081199999999852e-03
2.000000000000000000e+01 8.648576199999999034e-03
3.000000000000000000e+01 1.021645839999999958e-02
4.000000000000000000e+01 1.132771460000000022e-02
5.000000000000000000e+01 1.185552640000000005e-02
6.000000000000000000e+01 1.215582279999999869e-02
7.000000000000000000e+01 1.204356059999999937e-02
8.000000000000000000e+01 1.181445000000000065e-02
9.000000000000000000e+01 1.137876099999999939e-02
1.000000000000000000e+02 1.081605419999999949e-02
1.100000000000000000e+02 1.024198160000000003e-02
1.200000000000000000e+02 9.570402400000000559e-03
1.300000000000000000e+02 8.898823199999999350e-03
1.400000000000000000e+02 8.102020799999999981e-03
1.500000000000000000e+02 7.383383200000000375e-03
1.600000000000000000e+02 6.684286799999999626e-03
1.700000000000000000e+02 6.027263799999999991e-03
1.800000000000000000e+02 5.430060799999999847e-03
1.900000000000000000e+02 4.753097799999999803e-03
2.000000000000000000e+02 4.191387999999999885e-03
2.100000000000000000e+02 3.617514799999999899e-03
2.200000000000000000e+02 3.146731399999999537e-03
2.300000000000000000e+02 2.739357199999999624e-03
2.400000000000000000e+02 2.300677199999999738e-03
2.500000000000000000e+02 1.969673199999999978e-03
2.600000000000000000e+02 1.656415799999999897e-03
2.700000000000000000e+02 1.357116399999999928e-03
2.800000000000000000e+02 1.146151200000000052e-03
2.900000000000000000e+02 9.389745999999999596e-04
3.000000000000000000e+02 7.471517999999999909e-04
3.100000000000000000e+02 5.914203999999999729e-04
3.200000000000000000e+02 4.761671999999999563e-04
3.300000000000000000e+02 3.499469999999999751e-04
3.400000000000000000e+02 2.697881999999999863e-04
3.500000000000000000e+02 2.053819999999999930e-04
3.600000000000000000e+02 1.647043999999999743e-04
3.700000000000000000e+02 1.144555999999999888e-04
3.800000000000000000e+02 8.534319999999999970e-05
3.900000000000000000e+02 5.563259999999999993e-05
4.000000000000000000e+02 3.888300000000000024e-05
4.100000000000000000e+02 2.293099999999999780e-05
4.200000000000000000e+02 1.814540000000000079e-05
4.300000000000000000e+02 9.571199999999999096e-06
4.400000000000000000e+02 8.175399999999999687e-06
4.500000000000000000e+02 3.987999999999999764e-06
4.600000000000000000e+02 2.193399999999999616e-06
4.700000000000000000e+02 1.196399999999999887e-06
4.800000000000000000e+02 5.981999999999999435e-07
4.900000000000000000e+02 0.000000000000000000e+00
