# pT [GeV], dσ/dpT [pb/GeV]
0.000000000000000000e+00 0.000000000000000000e+00
8.000000000000000000e+00 4.101636487500000088e-03
1.600000000000000000e+01 7.515804712500000033e-03
2.400000000000000000e+01 9.410848312499999271e-03
3.200000000000000000e+01 1.070081684999999935e-02
4.000000000000000000e+01 1.168953524999999903e-02
4.800000000000000000e+01 1.210407603749999970e-02
5.600000000000000000e+01 1.253664033750000011e-02
6.400000000000000000e+01 1.268855279999999905e-02
7.200000000000000000e+01 1.219419360000000008e-02
8.000000000000000000e+01 1.197791144999999988e-02
8.800000000000000000e+01 1.190066782499999906e-02
9.600000000000000000e+01 1.159169332499999927e-02
1.040000000000000000e+02 1.099691741249999959e-02
1.120000000000000000e+02 1.046136161249999925e-02
1.200000000000000000e+02 9.987600712499999228e-03
1.280000000000000000e+02 9.640004399999999030e-03
1.360000000000000000e+02 8.617813762499999114e-03
1.440000000000000000e+02 8.195548612499999053e-03
1.520000000000000000e+02 7.616221424999999878e-03
1.600000000000000000e+02 7.217129362499999715e-03
1.680000000000000000e+02 6.205237874999999272e-03
1.760000000000000000e+02 5.983806149999999768e-03
1.840000000000000000e+02 5.152149787500000071e-03
1.920000000000000000e+02 4.539350362499999791e-03
2.000000000000000000e+02 4.449232799999999419e-03
2.080000000000000000e+02 3.913676999999999954e-03
2.160000000000000000e+02 3.535183237499999603e-03
2.240000000000000000e+02 3.166988625000000026e-03
2.320000000000000000e+02 2.757597412499999956e-03
2.400000000000000000e+02 2.533590899999999934e-03
2.480000000000000000e+02 2.119050112499999694e-03
2.560000000000000000e+02 1.951688924999999807e-03
2.640000000000000000e+02 1.539722924999999869e-03
2.720000000000000000e+02 1.573195162499999890e-03
2.800000000000000000e+02 1.248771937500000023e-03
2.880000000000000000e+02 1.107158624999999902e-03
2.960000000000000000e+02 8.496798749999999673e-04
3.040000000000000000e+02 7.054917749999999781e-04
3.120000000000000000e+02 5.844767624999999949e-04
3.200000000000000000e+02 4.917844124999999709e-04
3.280000000000000000e+02 3.913676999999999629e-04
3.360000000000000000e+02 3.424467374999999743e-04
3.440000000000000000e+02 2.729274750000000105e-04
3.520000000000000000e+02 2.240065124999999948e-04
3.600000000000000000e+02 1.802351249999999865e-04
3.680000000000000000e+02 1.416133124999999855e-04
3.760000000000000000e+02 9.011756249999999325e-05
3.840000000000000000e+02 6.436968749999999711e-05
3.920000000000000000e+02 5.149574999999999904e-05
