# pT [GeV], dσ/dpT [pb/GeV]
0.000000000000000000e+00 0.000000000000000000e+00
1.000000000000000000e+01 2.239020019999999889e-01
2.000000000000000000e+01 3.318548920000000124e-01
3.000000000000000000e+01 3.992972240000000061e-01
4.000000000000000000e+01 4.412637640000000028e-01
5.000000000000000000e+01 4.642013200000000284e-01
6.000000000000000000e+01 4.758881060000000329e-01
7.000000000000000000e+01 4.725946280000000721e-01
8.000000000000000000e+01 4.595920079999999963e-01
9.000000000000000000e+01 4.458652900000000807e-01
1.000000000000000000e+02 4.222737099999999688e-01
1.100000000000000000e+02 3.994529439999999765e-01
1.200000000000000000e+02 3.716179940000000070e-01
1.300000000000000000e+02 3.471699540000000583e-01
1.400000000000000000e+02 3.194673660000000304e-01
1.500000000000000000e+02 2.896236280000000218e-01
1.600000000000000000e+02 2.622636240000000285e-01
1.700000000000000000e+02 2.341795220000000288e-01
1.800000000000000000e+02 2.114444020000000035e-01
1.900000000000000000e+02 1.860698279999999927e-01
2.000000000000000000e+02 1.627663300000000146e-01
2.100000000000000000e+02 1.450142500000000112e-01
2.200000000000000000e+02 1.230577300000000041e-01
2.300000000000000000e+02 1.060375340000000027e-01
2.400000000000000000e+02 9.205387800000000564e-02
2.500000000000000000e+02 7.821815600000001090e-02
2.600000000000000000e+02 6.423449999999999993e-02
2.700000000000000000e+02 5.360660999999999898e-02
2.800000000000000000e+02 4.296314799999999962e-02
2.900000000000000000e+02 3.615039800000000025e-02
3.000000000000000000e+02 2.906513800000000078e-02
3.100000000000000000e+02 2.341250200000000170e-02
3.200000000000000000e+02 1.828152799999999828e-02
3.300000000000000000e+02 1.380457800000000138e-02
3.400000000000000000e+02 1.107169200000000103e-02
3.500000000000000000e+02 8.128583999999999463e-03
3.600000000000000000e+02 6.143153999999999629e-03
3.700000000000000000e+02 4.601525999999999880e-03
3.800000000000000000e+02 3.059898000000000132e-03
3.900000000000000000e+02 2.211224000000000349e-03
4.000000000000000000e+02 1.541628000000000182e-03
4.100000000000000000e+02 9.576780000000000015e-04
4.200000000000000000e+02 5.761639999999999947e-04
4.300000000000000000e+02 5.528060000000000872e-04
4.400000000000000000e+02 2.257940000000000001e-04
4.500000000000000000e+02 8.564600000000001313e-05
4.600000000000000000e+02 8.564600000000001313e-05
4.700000000000000000e+02 4.671599999999999792e-05
4.800000000000000000e+02 7.785999999999999654e-06
4.900000000000000000e+02 1.557199999999999931e-05
