# pT [GeV], dσ/dpT [pb/GeV]
0.000000000000000000e+00 0.000000000000000000e+00
1.000000000000000000e+01 3.187455999999999861e-05
2.000000000000000000e+01 2.597776639999999928e-04
3.000000000000000000e+01 1.133937472000000075e-03
4.000000000000000000e+01 3.188651296000000364e-03
5.000000000000000000e+01 4.758871807999999828e-03
6.000000000000000000e+01 6.033455775999999569e-03
7.000000000000000000e+01 7.250067888000000585e-03
8.000000000000000000e+01 8.432614063999999479e-03
9.000000000000000000e+01 9.468338047999999563e-03
1.000000000000000000e+02 1.036461083199999994e-02
1.100000000000000000e+02 1.099313731199999880e-02
1.200000000000000000e+02 1.150751302399999863e-02
1.300000000000000000e+02 1.161050769599999977e-02
1.400000000000000000e+02 1.161967163199999903e-02
1.500000000000000000e+02 1.149356790399999953e-02
1.600000000000000000e+02 1.099971144000000053e-02
1.700000000000000000e+02 1.044947684799999929e-02
1.800000000000000000e+02 9.665761103999999729e-03
1.900000000000000000e+02 8.867303375999998488e-03
2.000000000000000000e+02 8.009877711999999206e-03
2.100000000000000000e+02 7.109819823999999171e-03
2.200000000000000000e+02 6.144219872000000228e-03
2.300000000000000000e+02 5.344168415999999908e-03
2.400000000000000000e+02 4.555870703999999848e-03
2.500000000000000000e+02 3.872759039999999764e-03
2.600000000000000000e+02 3.264751808000000005e-03
2.700000000000000000e+02 2.691208943999999752e-03
2.800000000000000000e+02 2.185399519999999852e-03
2.900000000000000000e+02 1.775612207999999800e-03
3.000000000000000000e+02 1.461647791999999817e-03
3.100000000000000000e+02 1.150273183999999966e-03
3.200000000000000000e+02 9.169912480000000149e-04
3.300000000000000000e+02 7.074160159999999271e-04
3.400000000000000000e+02 5.297153439999999734e-04
3.500000000000000000e+02 4.042092639999999670e-04
3.600000000000000000e+02 2.954373280000000012e-04
3.700000000000000000e+02 2.211297599999999751e-04
3.800000000000000000e+02 1.470214079999999967e-04
3.900000000000000000e+02 1.023970240000000013e-04
4.000000000000000000e+02 7.888953599999999589e-05
4.100000000000000000e+02 4.900713599999999889e-05
4.200000000000000000e+02 2.749180799999999847e-05
4.300000000000000000e+02 1.633571199999999963e-05
4.400000000000000000e+02 1.075766399999999852e-05
4.500000000000000000e+02 6.574128000000000222e-06
4.600000000000000000e+02 3.984319999999999827e-06
4.700000000000000000e+02 1.992159999999999913e-06
4.800000000000000000e+02 1.195295999999999906e-06
4.900000000000000000e+02 3.984320000000000039e-07
