# pT [GeV], dσ/dpT [pb/GeV]
0.000000000000000000e+00 0.000000000000000000e+00
8.000000000000000000e+00 1.270493258499999869e-04
1.600000000000000000e+01 2.540317637749999998e-04
2.400000000000000000e+01 2.884344531999999991e-04
3.200000000000000000e+01 2.630787844000000088e-04
4.000000000000000000e+01 2.121136156999999835e-04
4.800000000000000000e+01 1.599873412249999953e-04
5.600000000000000000e+01 1.171927898249999978e-04
6.400000000000000000e+01 8.329776259999999285e-05
7.200000000000000000e+01 5.950795727499999603e-05
8.000000000000000000e+01 4.231947562499999605e-05
8.800000000000000000e+01 2.990576277499999852e-05
9.600000000000000000e+01 2.150875557499999841e-05
1.040000000000000000e+02 1.525730719999999945e-05
1.120000000000000000e+02 1.097991014999999945e-05
1.200000000000000000e+02 8.088293699999998877e-06
1.280000000000000000e+02 5.790093199999999738e-06
1.360000000000000000e+02 4.164202099999999444e-06
1.440000000000000000e+02 3.073414399999999805e-06
1.520000000000000000e+02 2.272474374999999743e-06
1.600000000000000000e+02 1.694494099999999813e-06
1.680000000000000000e+02 1.318892674999999989e-06
1.760000000000000000e+02 1.006749024999999890e-06
1.840000000000000000e+02 7.151862749999999214e-07
1.920000000000000000e+02 5.625445999999999113e-07
2.000000000000000000e+02 3.961823249999999550e-07
2.080000000000000000e+02 3.224341000000000060e-07
2.160000000000000000e+02 2.366803499999999717e-07
2.240000000000000000e+02 1.852280999999999882e-07
2.320000000000000000e+02 1.303456999999999917e-07
2.400000000000000000e+02 1.080497249999999997e-07
2.480000000000000000e+02 7.203314999999999542e-08
2.560000000000000000e+02 6.517284999999999586e-08
2.640000000000000000e+02 4.116179999999999738e-08
2.720000000000000000e+02 4.973717499999999684e-08
2.800000000000000000e+02 2.915627499999999815e-08
2.880000000000000000e+02 3.087134999999999804e-08
2.960000000000000000e+02 8.575374999999999455e-09
3.040000000000000000e+02 1.372059999999999913e-08
3.120000000000000000e+02 1.372059999999999913e-08
3.200000000000000000e+02 6.860299999999999564e-09
3.280000000000000000e+02 3.430149999999999782e-09
3.360000000000000000e+02 3.430149999999999782e-09
3.440000000000000000e+02 3.430149999999999782e-09
3.520000000000000000e+02 0.000000000000000000e+00
3.600000000000000000e+02 1.715074999999999891e-09
3.680000000000000000e+02 0.000000000000000000e+00
3.760000000000000000e+02 1.715074999999999891e-09
3.840000000000000000e+02 0.000000000000000000e+00
3.920000000000000000e+02 0.000000000000000000e+00
