# MET [GeV], dσ/d(MET) [pb/GeV]
1.000000000000000000e+00 1.225104348697394652e-06
1.098000000000000043e+01 2.971587174348697115e-06
2.096000000000000085e+01 4.297995631262525269e-06
3.094000000000000128e+01 4.581647134268536954e-06
4.092000000000000171e+01 4.431717054108216601e-06
5.090000000000000568e+01 3.864414048096191536e-06
6.088000000000000256e+01 3.272798056112223785e-06
7.085999999999999943e+01 2.581228677354709133e-06
8.084000000000000341e+01 2.162505030060120152e-06
9.082000000000000739e+01 1.618164288577154350e-06
1.008000000000000114e+02 1.214298577154308638e-06
1.107800000000000011e+02 8.982297595190380628e-07
1.207600000000000051e+02 7.158823647294588197e-07
1.307400000000000091e+02 5.564972344689377803e-07
1.407199999999999989e+02 4.214250901803606435e-07
1.507000000000000171e+02 2.620399599198396570e-07
1.606800000000000068e+02 2.093618236472945964e-07
1.706599999999999966e+02 1.580344088176352612e-07
1.806400000000000148e+02 1.256170941883767420e-07
1.906200000000000045e+02 1.175127655310621122e-07
2.006000000000000227e+02 8.779689378757514950e-08
2.105800000000000125e+02 4.862597194388777215e-08
2.205600000000000023e+02 4.457380761523046387e-08
2.305400000000000205e+02 2.836515030060120097e-08
2.405200000000000102e+02 2.161154308617234281e-08
2.505000000000000000e+02 1.485793587174348465e-08
2.604800000000000182e+02 1.755937875751503122e-08
2.704600000000000364e+02 1.215649298597194304e-08
2.804399999999999977e+02 6.753607214428857335e-09
2.904200000000000159e+02 5.402885771543085703e-09
3.004000000000000341e+02 1.350721442885771426e-09
3.103799999999999955e+02 5.402885771543085703e-09
3.203600000000000136e+02 1.350721442885771426e-09
3.303400000000000318e+02 1.350721442885771426e-09
3.403199999999999932e+02 1.350721442885771426e-09
3.503000000000000114e+02 1.350721442885771426e-09
3.602800000000000296e+02 1.350721442885771426e-09
3.702599999999999909e+02 0.000000000000000000e+00
3.802400000000000091e+02 0.000000000000000000e+00
3.902200000000000273e+02 0.000000000000000000e+00
4.002000000000000455e+02 0.000000000000000000e+00
4.101800000000000068e+02 0.000000000000000000e+00
4.201600000000000250e+02 0.000000000000000000e+00
4.301400000000000432e+02 0.000000000000000000e+00
4.401200000000000045e+02 0.000000000000000000e+00
4.501000000000000227e+02 0.000000000000000000e+00
4.600800000000000409e+02 0.000000000000000000e+00
4.700600000000000023e+02 0.000000000000000000e+00
4.800400000000000205e+02 0.000000000000000000e+00
4.900200000000000387e+02 0.000000000000000000e+00
