# MET [GeV], dσ/d(MET) [pb/GeV]
1.000000000000000000e+00 9.163763126252505442e-02
1.098000000000000043e+01 2.396028376753506772e-01
2.096000000000000085e+01 3.412811322645290524e-01
3.094000000000000128e+01 4.037797755511022268e-01
4.092000000000000171e+01 4.447850020040080565e-01
5.090000000000000568e+01 4.626116653306613924e-01
6.088000000000000256e+01 4.732530521042083715e-01
7.085999999999999943e+01 4.685408837675350546e-01
8.084000000000000341e+01 4.545994188376753509e-01
9.082000000000000739e+01 4.383642825651303254e-01
1.008000000000000114e+02 4.187198456913827638e-01
1.107800000000000011e+02 3.942384148296593227e-01
1.207600000000000051e+02 3.669093987975952098e-01
1.307400000000000091e+02 3.386909999999999643e-01
1.407199999999999989e+02 3.128910981963927695e-01
1.507000000000000171e+02 2.845010641282564867e-01
1.606800000000000068e+02 2.585061222444889895e-01
1.706599999999999966e+02 2.297260080160320739e-01
1.806400000000000148e+02 2.033019779559118168e-01
1.906200000000000045e+02 1.827837615230460955e-01
2.006000000000000227e+02 1.596364048096192423e-01
2.105800000000000125e+02 1.388061242484970037e-01
2.205600000000000023e+02 1.210496753507014078e-01
2.305400000000000205e+02 1.024662565130260578e-01
2.405200000000000102e+02 8.889926853707415255e-02
2.505000000000000000e+02 7.462233466933868020e-02
2.604800000000000182e+02 6.228019839679358599e-02
2.704600000000000364e+02 5.153739078156312908e-02
2.804399999999999977e+02 4.257334869739479166e-02
2.904200000000000159e+02 3.405399799599198585e-02
3.004000000000000341e+02 2.773469939879759372e-02
3.103799999999999955e+02 2.171966332665330873e-02
3.203600000000000136e+02 1.669543086172344676e-02
3.303400000000000318e+02 1.335634468937875637e-02
3.403199999999999932e+02 1.026690981963927773e-02
3.503000000000000114e+02 8.168278557114229052e-03
3.602800000000000296e+02 5.570344689378757715e-03
3.702599999999999909e+02 4.002222444889779254e-03
3.802400000000000091e+02 3.042625250501002077e-03
3.902200000000000273e+02 2.129837675350701454e-03
4.002000000000000455e+02 1.388685370741483049e-03
4.101800000000000068e+02 8.581763527054107671e-04
4.201600000000000250e+02 6.319298597194389095e-04
4.301400000000000432e+02 3.432705410821643285e-04
4.401200000000000045e+02 1.950400801603206313e-04
4.501000000000000227e+02 1.170240480961923896e-04
4.600800000000000409e+02 1.092224448897795628e-04
4.700600000000000023e+02 2.340480961923847725e-05
4.800400000000000205e+02 1.560320641282565037e-05
4.900200000000000387e+02 0.000000000000000000e+00
