# pT [GeV], dσ/dpT [pb/GeV]
0.000000000000000000e+00 0.000000000000000000e+00
8.000000000000000000e+00 3.939424874999999070e-03
1.600000000000000000e+01 7.496493806249998962e-03
2.400000000000000000e+01 9.382010692499997973e-03
3.200000000000000000e+01 1.073943866249999803e-02
4.000000000000000000e+01 1.159555550624999896e-02
4.800000000000000000e+01 1.207626833249999913e-02
5.600000000000000000e+01 1.249879096124999894e-02
6.400000000000000000e+01 1.250419801499999886e-02
7.200000000000000000e+01 1.248437215124999916e-02
8.000000000000000000e+01 1.229229300374999785e-02
8.800000000000000000e+01 1.193594241374999754e-02
9.600000000000000000e+01 1.140733853999999908e-02
1.040000000000000000e+02 1.101159370124999912e-02
1.120000000000000000e+02 1.053113835374999870e-02
1.200000000000000000e+02 9.909584651249999168e-03
1.280000000000000000e+02 9.393597236249998789e-03
1.360000000000000000e+02 8.831521124999998362e-03
1.440000000000000000e+02 8.212799688749999535e-03
1.520000000000000000e+02 7.561893408749999212e-03
1.600000000000000000e+02 7.011403841249998735e-03
1.680000000000000000e+02 6.467866199999999267e-03
1.760000000000000000e+02 5.906562524999998953e-03
1.840000000000000000e+02 5.381305874999998962e-03
1.920000000000000000e+02 4.875875088749999538e-03
2.000000000000000000e+02 4.400826794999999035e-03
2.080000000000000000e+02 3.951526376249999382e-03
2.160000000000000000e+02 3.576637316249999411e-03
2.240000000000000000e+02 3.136863611249999552e-03
2.320000000000000000e+02 2.795446788749999818e-03
2.400000000000000000e+02 2.447592997499999871e-03
2.480000000000000000e+02 2.124972123749999543e-03
2.560000000000000000e+02 1.878822438749999700e-03
2.640000000000000000e+02 1.642714424999999799e-03
2.720000000000000000e+02 1.397594654999999818e-03
2.800000000000000000e+02 1.172558227499999935e-03
2.880000000000000000e+02 9.809940374999998568e-04
2.960000000000000000e+02 8.553444074999998507e-04
3.040000000000000000e+02 6.949351462499998898e-04
3.120000000000000000e+02 5.937459974999999323e-04
3.200000000000000000e+02 5.010536474999999082e-04
3.280000000000000000e+02 3.980621474999999237e-04
3.360000000000000000e+02 3.334349812499999479e-04
3.440000000000000000e+02 2.615984099999999726e-04
3.520000000000000000e+02 2.149947562499999684e-04
3.600000000000000000e+02 1.691635387499999680e-04
3.680000000000000000e+02 1.277094599999999711e-04
3.760000000000000000e+02 1.037639362499999884e-04
3.840000000000000000e+02 7.827353999999998445e-05
3.920000000000000000e+02 5.741776124999998989e-05
