# pT [GeV], dσ/dpT [pb/GeV]
0.000000000000000000e+00 0.000000000000000000e+00
8.000000000000000000e+00 1.248232819500000030e-04
1.600000000000000000e+01 2.495808479250000221e-04
2.400000000000000000e+01 2.833807644000000173e-04
3.200000000000000000e+01 2.584693547999999757e-04
4.000000000000000000e+01 2.083971518999999878e-04
4.800000000000000000e+01 1.571841870749999864e-04
5.600000000000000000e+01 1.151394432749999953e-04
6.400000000000000000e+01 8.183829419999999889e-05
7.200000000000000000e+01 5.846531242499999789e-05
8.000000000000000000e+01 4.157799187499999928e-05
8.800000000000000000e+01 2.938178092499999809e-05
9.600000000000000000e+01 2.113189852500000054e-05
1.040000000000000000e+02 1.498998239999999931e-05
1.120000000000000000e+02 1.078753004999999916e-05
1.200000000000000000e+02 7.946577899999999315e-06
1.280000000000000000e+02 5.688644400000000175e-06
1.360000000000000000e+02 4.091240699999999726e-06
1.440000000000000000e+02 3.019564800000000069e-06
1.520000000000000000e+02 2.232658124999999851e-06
1.600000000000000000e+02 1.664804700000000034e-06
1.680000000000000000e+02 1.295784225000000000e-06
1.760000000000000000e+02 9.891096750000000329e-07
1.840000000000000000e+02 7.026554249999999413e-07
1.920000000000000000e+02 5.526881999999999899e-07
2.000000000000000000e+02 3.892407750000000155e-07
2.080000000000000000e+02 3.167847000000000110e-07
2.160000000000000000e+02 2.325334499999999996e-07
2.240000000000000000e+02 1.819826999999999928e-07
2.320000000000000000e+02 1.280619000000000067e-07
2.400000000000000000e+02 1.061565749999999958e-07
2.480000000000000000e+02 7.077105000000000161e-08
2.560000000000000000e+02 6.403095000000000335e-08
2.640000000000000000e+02 4.044060000000000281e-08
2.720000000000000000e+02 4.886572499999999733e-08
2.800000000000000000e+02 2.864542499999999923e-08
2.880000000000000000e+02 3.033044999999999880e-08
2.960000000000000000e+02 8.425124999999999483e-09
3.040000000000000000e+02 1.348019999999999983e-08
3.120000000000000000e+02 1.348019999999999983e-08
3.200000000000000000e+02 6.740099999999999917e-09
3.280000000000000000e+02 3.370049999999999958e-09
3.360000000000000000e+02 3.370049999999999958e-09
3.440000000000000000e+02 3.370049999999999958e-09
3.520000000000000000e+02 0.000000000000000000e+00
3.600000000000000000e+02 1.685024999999999979e-09
3.680000000000000000e+02 0.000000000000000000e+00
3.760000000000000000e+02 1.685024999999999979e-09
3.840000000000000000e+02 0.000000000000000000e+00
3.920000000000000000e+02 0.000000000000000000e+00
