# MET [GeV], dσ/d(MET) [pb/GeV]
1.000000000000000000e+00 2.373819038076152143e-03
1.098000000000000043e+01 6.123657915831662475e-03
2.096000000000000085e+01 8.624349699398795727e-03
3.094000000000000128e+01 1.041835030060120175e-02
4.092000000000000171e+01 1.136779799599198400e-02
5.090000000000000568e+01 1.180995450901803530e-02
6.088000000000000256e+01 1.197558837675350568e-02
7.085999999999999943e+01 1.198917474949899760e-02
8.084000000000000341e+01 1.164432064128256318e-02
9.082000000000000739e+01 1.124392224448897762e-02
1.008000000000000114e+02 1.071065711422845498e-02
1.107800000000000011e+02 1.004772204408817433e-02
1.207600000000000051e+02 9.384986773547092376e-03
1.307400000000000091e+02 8.722850901803606491e-03
1.407199999999999989e+02 8.072303406813625612e-03
1.507000000000000171e+02 7.217560721442885935e-03
1.606800000000000068e+02 6.602377755511021351e-03
1.706599999999999966e+02 5.887894388777554708e-03
1.806400000000000148e+02 5.284699398797595114e-03
1.906200000000000045e+02 4.666319639278556676e-03
2.006000000000000227e+02 4.142245290581162559e-03
2.105800000000000125e+02 3.562426853707414270e-03
2.205600000000000023e+02 3.136853707414829183e-03
2.305400000000000205e+02 2.656535470941883380e-03
2.405200000000000102e+02 2.276316833667334401e-03
2.505000000000000000e+02 1.880114228456913547e-03
2.604800000000000182e+02 1.612182965931863556e-03
2.704600000000000364e+02 1.332463527054108133e-03
2.804399999999999977e+02 1.076520240480961831e-03
2.904200000000000159e+02 8.863110220440881043e-04
3.004000000000000341e+02 7.174803607214427824e-04
3.103799999999999955e+02 5.604378757515030007e-04
3.203600000000000136e+02 4.643342685370741452e-04
3.303400000000000318e+02 3.410579158316632978e-04
3.403199999999999932e+02 2.717274549098195940e-04
3.503000000000000114e+02 2.003989979959919601e-04
3.602800000000000296e+02 1.510484969939879371e-04
3.702599999999999909e+02 1.122873747494990013e-04
3.802400000000000091e+02 7.252725450901803268e-05
3.902200000000000273e+02 5.854128256513025746e-05
4.002000000000000455e+02 3.696292585170340544e-05
4.101800000000000068e+02 2.617374749498997943e-05
4.201600000000000250e+02 1.718276553106212103e-05
4.301400000000000432e+02 9.590380761523045909e-06
4.401200000000000045e+02 5.194789579158316605e-06
4.501000000000000227e+02 2.197795591182364229e-06
4.600800000000000409e+02 1.798196392785571214e-06
4.700600000000000023e+02 5.993987975951903693e-07
4.800400000000000205e+02 3.995991983967935443e-07
4.900200000000000387e+02 1.997995991983967721e-07
