# pT [GeV], dσ/dpT [pb/GeV]
0.000000000000000000e+00 0.000000000000000000e+00
1.000000000000000000e+01 3.190399999999999812e-05
2.000000000000000000e+01 2.600176000000000158e-04
3.000000000000000000e+01 1.134984799999999962e-03
4.000000000000000000e+01 3.191596399999999806e-03
5.000000000000000000e+01 4.763267199999999049e-03
6.000000000000000000e+01 6.039028399999999373e-03
7.000000000000000000e+01 7.256764199999999818e-03
8.000000000000000000e+01 8.440402599999998964e-03
9.000000000000000000e+01 9.477083199999999930e-03
1.000000000000000000e+02 1.037418379999999890e-02
1.100000000000000000e+02 1.100329079999999918e-02
1.200000000000000000e+02 1.151814160000000017e-02
1.300000000000000000e+02 1.162123139999999936e-02
1.400000000000000000e+02 1.163040379999999950e-02
1.500000000000000000e+02 1.150418359999999876e-02
1.600000000000000000e+02 1.100987099999999920e-02
1.700000000000000000e+02 1.045912819999999903e-02
1.800000000000000000e+02 9.674688599999998334e-03
1.900000000000000000e+02 8.875493400000000060e-03
2.000000000000000000e+02 8.017275799999999328e-03
2.100000000000000000e+02 7.116386599999999056e-03
2.200000000000000000e+02 6.149894799999999773e-03
2.300000000000000000e+02 5.349104399999999628e-03
2.400000000000000000e+02 4.560078599999999732e-03
2.500000000000000000e+02 3.876335999999999758e-03
2.600000000000000000e+02 3.267767199999999615e-03
2.700000000000000000e+02 2.693694600000000154e-03
2.800000000000000000e+02 2.187418000000000001e-03
2.900000000000000000e+02 1.777252199999999850e-03
3.000000000000000000e+02 1.462997799999999791e-03
3.100000000000000000e+02 1.151335599999999846e-03
3.200000000000000000e+02 9.178381999999998819e-04
3.300000000000000000e+02 7.080693999999998923e-04
3.400000000000000000e+02 5.302045999999999279e-04
3.500000000000000000e+02 4.045825999999999980e-04
3.600000000000000000e+02 2.957101999999999864e-04
3.700000000000000000e+02 2.213339999999999785e-04
3.800000000000000000e+02 1.471571999999999876e-04
3.900000000000000000e+02 1.024915999999999794e-04
4.000000000000000000e+02 7.896239999999999466e-05
4.100000000000000000e+02 4.905239999999999812e-05
4.200000000000000000e+02 2.751719999999999465e-05
4.300000000000000000e+02 1.635079999999999937e-05
4.400000000000000000e+02 1.076759999999999835e-05
4.500000000000000000e+02 6.580199999999999273e-06
4.600000000000000000e+02 3.987999999999999764e-06
4.700000000000000000e+02 1.993999999999999882e-06
4.800000000000000000e+02 1.196399999999999887e-06
4.900000000000000000e+02 3.987999999999999976e-07
