# pT [GeV], dσ/dpT [pb/GeV]
0.000000000000000000e+00 0.000000000000000000e+00
8.000000000000000000e+00 1.169681149999999967e-04
1.600000000000000000e+01 2.448784084999999625e-04
2.400000000000000000e+01 2.826786614999999788e-04
3.200000000000000000e+01 2.612402239999999580e-04
4.000000000000000000e+01 2.151733094999999912e-04
4.800000000000000000e+01 1.627434667500000020e-04
5.600000000000000000e+01 1.225421087499999789e-04
6.400000000000000000e+01 8.583950374999999554e-05
7.200000000000000000e+01 6.167409699999999804e-05
8.000000000000000000e+01 4.673579374999999855e-05
8.800000000000000000e+01 3.181464124999999640e-05
9.600000000000000000e+01 2.269044224999999936e-05
1.040000000000000000e+02 1.727080525000000008e-05
1.120000000000000000e+02 1.085642474999999930e-05
1.200000000000000000e+02 8.163756999999998687e-06
1.280000000000000000e+02 6.071365499999999799e-06
1.360000000000000000e+02 4.905114499999999503e-06
1.440000000000000000e+02 3.378697749999999613e-06
1.520000000000000000e+02 2.366803499999999929e-06
1.600000000000000000e+02 1.646471999999999895e-06
1.680000000000000000e+02 1.354909249999999821e-06
1.760000000000000000e+02 1.063346499999999959e-06
1.840000000000000000e+02 7.031807499999999421e-07
1.920000000000000000e+02 4.973717500000000081e-07
2.000000000000000000e+02 4.973717500000000081e-07
2.080000000000000000e+02 1.886582500000000012e-07
2.160000000000000000e+02 3.087134999999999539e-07
2.240000000000000000e+02 1.543567499999999770e-07
2.320000000000000000e+02 1.886582500000000012e-07
2.400000000000000000e+02 1.372059999999999913e-07
2.480000000000000000e+02 8.575374999999999455e-08
2.560000000000000000e+02 8.575374999999999455e-08
2.640000000000000000e+02 5.145224999999999673e-08
2.720000000000000000e+02 5.145224999999999673e-08
2.800000000000000000e+02 1.715074999999999891e-08
2.880000000000000000e+02 1.715074999999999891e-08
2.960000000000000000e+02 0.000000000000000000e+00
3.040000000000000000e+02 1.715074999999999891e-08
3.120000000000000000e+02 0.000000000000000000e+00
3.200000000000000000e+02 0.000000000000000000e+00
3.280000000000000000e+02 0.000000000000000000e+00
3.360000000000000000e+02 0.000000000000000000e+00
3.440000000000000000e+02 0.000000000000000000e+00
3.520000000000000000e+02 0.000000000000000000e+00
3.600000000000000000e+02 0.000000000000000000e+00
3.680000000000000000e+02 0.000000000000000000e+00
3.760000000000000000e+02 0.000000000000000000e+00
3.840000000000000000e+02 0.000000000000000000e+00
3.920000000000000000e+02 0.000000000000000000e+00
