# pT [GeV], dσ/dpT [pb/GeV]
0.000000000000000000e+00 9.969999999999999411e-07
1.200000000000000000e+01 7.045466666666666815e-05
2.400000000000000000e+01 5.736073333333333328e-04
3.600000000000000000e+01 2.568604333333333097e-03
4.800000000000000000e+01 4.604478333333332681e-03
6.000000000000000000e+01 6.148831333333332726e-03
7.200000000000000000e+01 7.623394333333332641e-03
8.400000000000000000e+01 9.010387499999999647e-03
9.600000000000000000e+01 1.007750983333333301e-02
1.080000000000000000e+02 1.096550449999999892e-02
1.200000000000000000e+02 1.154077349999999870e-02
1.320000000000000000e+02 1.162518616666666747e-02
1.440000000000000000e+02 1.159328216666666474e-02
1.560000000000000000e+02 1.118982949999999983e-02
1.680000000000000000e+02 1.050339499999999870e-02
1.800000000000000000e+02 9.606095000000000259e-03
1.920000000000000000e+02 8.615243166666666438e-03
2.040000000000000000e+02 7.575538333333332874e-03
2.160000000000000000e+02 6.430982333333332308e-03
2.280000000000000000e+02 5.424510833333333337e-03
2.400000000000000000e+02 4.491318833333333115e-03
2.520000000000000000e+02 3.681090166666666288e-03
2.640000000000000000e+02 2.998311333333333190e-03
2.760000000000000000e+02 2.312042999999999737e-03
2.880000000000000000e+02 1.819358833333333198e-03
3.000000000000000000e+02 1.437673999999999896e-03
3.120000000000000000e+02 1.068783999999999923e-03
3.240000000000000000e+02 8.093978333333332227e-04
3.360000000000000000e+02 5.802539999999999911e-04
3.480000000000000000e+02 4.164136666666666130e-04
3.600000000000000000e+02 2.851420000000000018e-04
3.720000000000000000e+02 2.007293333333333158e-04
3.840000000000000000e+02 1.229633333333333153e-04
3.960000000000000000e+02 8.507733333333333283e-05
4.080000000000000000e+02 5.167783333333332845e-05
4.200000000000000000e+02 2.575583333333333167e-05
4.320000000000000000e+02 1.512116666666666676e-05
4.440000000000000000e+02 7.809833333333332731e-06
4.560000000000000000e+02 5.317333333333333302e-06
4.680000000000000000e+02 1.993999999999999882e-06
4.800000000000000000e+02 9.969999999999999411e-07
4.920000000000000000e+02 4.984999999999999706e-07
5.040000000000000000e+02 3.323333333333333314e-07
5.160000000000000000e+02 0.000000000000000000e+00
5.280000000000000000e+02 0.000000000000000000e+00
5.400000000000000000e+02 0.000000000000000000e+00
5.520000000000000000e+02 0.000000000000000000e+00
5.640000000000000000e+02 0.000000000000000000e+00
5.760000000000000000e+02 0.000000000000000000e+00
5.880000000000000000e+02 0.000000000000000000e+00
