# C_j, dσ/d(C_j) [pb]
0.000000000000000000e+00 4.576610800000000090e+00
2.000000000000000111e-01 5.133699099999999405e+00
4.000000000000000222e-01 6.973530900000000088e+00
6.000000000000000888e-01 9.707974099999999495e+00
8.000000000000000444e-01 1.334014310000000059e+01
1.000000000000000000e+00 1.762516820000000095e+01
1.200000000000000178e+00 2.312480929999999901e+01
1.400000000000000133e+00 2.844420450000000145e+01
1.600000000000000089e+00 3.353196619999999939e+01
1.800000000000000044e+00 3.656850620000000163e+01
2.000000000000000000e+00 3.779596910000000065e+01
2.200000000000000178e+00 3.653619429999999824e+01
2.400000000000000355e+00 3.269419260000000094e+01
2.600000000000000089e+00 2.781431710000000024e+01
2.800000000000000266e+00 2.218309260000000194e+01
3.000000000000000000e+00 1.690613109999999963e+01
3.200000000000000178e+00 1.244475309999999979e+01
3.400000000000000355e+00 8.741342200000000062e+00
3.600000000000000089e+00 6.073080000000000034e+00
3.800000000000000266e+00 4.014850899999999889e+00
4.000000000000000000e+00 2.512152900000000244e+00
4.200000000000000178e+00 1.432624000000000120e+00
4.400000000000000355e+00 7.373342000000000507e-01
4.600000000000000533e+00 2.845783000000000063e-01
4.800000000000000711e+00 8.447810000000000041e-02
5.000000000000000000e+00 1.635059999999999986e-02
5.200000000000000178e+00 1.946500000000000096e-03
5.400000000000000355e+00 0.000000000000000000e+00
5.600000000000000533e+00 0.000000000000000000e+00
5.800000000000000711e+00 0.000000000000000000e+00
6.000000000000000000e+00 0.000000000000000000e+00
6.200000000000000178e+00 0.000000000000000000e+00
6.400000000000000355e+00 0.000000000000000000e+00
6.600000000000000533e+00 0.000000000000000000e+00
6.800000000000000711e+00 0.000000000000000000e+00
7.000000000000000000e+00 0.000000000000000000e+00
7.200000000000000178e+00 0.000000000000000000e+00
7.400000000000000355e+00 0.000000000000000000e+00
7.600000000000000533e+00 0.000000000000000000e+00
7.800000000000000711e+00 0.000000000000000000e+00
8.000000000000000000e+00 0.000000000000000000e+00
8.200000000000001066e+00 0.000000000000000000e+00
8.400000000000000355e+00 0.000000000000000000e+00
8.599999999999999645e+00 0.000000000000000000e+00
8.800000000000000711e+00 0.000000000000000000e+00
9.000000000000000000e+00 0.000000000000000000e+00
9.200000000000001066e+00 0.000000000000000000e+00
9.400000000000000355e+00 0.000000000000000000e+00
9.600000000000001421e+00 0.000000000000000000e+00
9.800000000000000711e+00 0.000000000000000000e+00
