# MET [GeV], dσ/d(MET) [pb/GeV]
1.000000000000000000e+00 5.560717744360901897e-05
8.980000000000000426e+00 1.579220183959899554e-04
1.696000000000000085e+01 2.469644686215538500e-04
2.494000000000000128e+01 2.735683886716792261e-04
3.292000000000000171e+01 2.445414758395989810e-04
4.090000000000000568e+01 1.933747621553884516e-04
4.888000000000000256e+01 1.442474852130325841e-04
5.685999999999999943e+01 1.055235322305764234e-04
6.484000000000000341e+01 7.498943002506266076e-05
7.282000000000000739e+01 5.343594611528821816e-05
8.080000000000001137e+01 3.750062887218044878e-05
8.878000000000000114e+01 2.632343413533834401e-05
9.676000000000000512e+01 1.886014325814536278e-05
1.047400000000000091e+02 1.366946416040100293e-05
1.127199999999999989e+02 9.781523859649122546e-06
1.207000000000000028e+02 7.302771829573934248e-06
1.286800000000000068e+02 5.570855789473683615e-06
1.366599999999999966e+02 3.974113684210525670e-06
1.446400000000000148e+02 2.867377092731829456e-06
1.526200000000000045e+02 2.357095488721804626e-06
1.606000000000000227e+02 1.870469323308270573e-06
1.685800000000000125e+02 1.480154586466165471e-06
1.765600000000000023e+02 1.165875187969924741e-06
1.845400000000000205e+02 1.005356140350877123e-06
1.925200000000000102e+02 8.144229573934835863e-07
2.005000000000000000e+02 6.809386967418546322e-07
2.084800000000000182e+02 5.102816040100250410e-07
2.164600000000000080e+02 4.680397493734335763e-07
2.244399999999999977e+02 4.410049624060150178e-07
2.324200000000000159e+02 4.004527819548871800e-07
2.404000000000000057e+02 3.125897243107768912e-07
2.483800000000000239e+02 2.551408020050125205e-07
2.563600000000000136e+02 2.196576441102756690e-07
2.643400000000000318e+02 1.791054636591478577e-07
2.723199999999999932e+02 1.081391478696741812e-07
2.803000000000000114e+02 1.216565413533834605e-07
2.882800000000000296e+02 1.030701253132831949e-07
2.962599999999999909e+02 7.603533834586464957e-08
3.042400000000000091e+02 7.096631578947367646e-08
3.122200000000000273e+02 6.589729323308270335e-08
3.202000000000000455e+02 5.406957393483709061e-08
3.281800000000000068e+02 4.055218045112781796e-08
3.361600000000000250e+02 3.210380952380951841e-08
3.441400000000000432e+02 2.027609022556390898e-08
3.521200000000000045e+02 1.689674185463659247e-08
3.601000000000000227e+02 1.858641604010024907e-08
3.680800000000000409e+02 1.013804511278195449e-08
3.760600000000000023e+02 1.351739348370927265e-08
3.840400000000000205e+02 3.379348370927318163e-09
3.920200000000000387e+02 1.182771929824561440e-08
