# pT [GeV], dσ/dpT [pb/GeV]
0.000000000000000000e+00 0.000000000000000000e+00
6.000000000000000000e+00 6.562013799999999896e-07
1.200000000000000000e+01 1.554433200499999866e-05
1.800000000000000000e+01 4.855665485499999987e-05
2.400000000000000000e+01 9.868414794499999314e-05
3.000000000000000000e+01 1.616053206799999921e-04
3.600000000000000000e+01 2.586669432950000061e-04
4.200000000000000000e+01 3.094124342599999873e-04
4.800000000000000000e+01 2.776091399800000351e-04
5.400000000000000000e+01 2.291693429049999821e-04
6.000000000000000000e+01 1.841184214500000223e-04
6.600000000000000000e+01 1.431215660550000065e-04
7.200000000000000000e+01 1.120800946099999941e-04
7.800000000000000000e+01 8.739838311500000318e-05
8.400000000000000000e+01 6.712131102000000709e-05
9.000000000000000000e+01 5.213205347000000184e-05
9.600000000000000000e+01 3.986872836499999858e-05
1.020000000000000000e+02 3.089090469000000170e-05
1.080000000000000000e+02 2.449743576500000117e-05
1.140000000000000000e+02 1.952423832000000029e-05
1.200000000000000000e+02 1.493532319000000044e-05
1.260000000000000000e+02 1.210376928999999940e-05
1.320000000000000000e+02 9.834031639999999783e-06
1.380000000000000000e+02 7.755311514999999625e-06
1.440000000000000000e+02 6.126044389999999754e-06
1.500000000000000000e+02 5.283320015000000171e-06
1.560000000000000000e+02 4.110247685000000128e-06
1.620000000000000000e+02 3.427079125000000168e-06
1.680000000000000000e+02 2.901219115000000265e-06
1.740000000000000000e+02 2.597838340000000094e-06
1.800000000000000000e+02 2.245017734999999746e-06
1.860000000000000000e+02 1.988829525000000185e-06
1.920000000000000000e+02 1.692190545000000191e-06
1.980000000000000000e+02 1.382067975000000053e-06
2.040000000000000000e+02 1.238243014999999928e-06
2.100000000000000000e+02 1.092170790000000025e-06
2.160000000000000000e+02 1.002280190000000053e-06
2.220000000000000000e+02 7.303611250000000409e-07
2.280000000000000000e+02 7.640700999999999777e-07
2.340000000000000000e+02 6.269869350000000303e-07
2.400000000000000000e+02 6.449650550000000459e-07
2.460000000000000000e+02 5.438381300000000240e-07
2.520000000000000000e+02 4.809147100000000221e-07
2.580000000000000000e+02 4.404639399999999604e-07
2.640000000000000000e+02 3.123698350000000208e-07
2.700000000000000000e+02 3.213588950000000286e-07
2.760000000000000000e+02 2.943917150000000051e-07
2.820000000000000000e+02 2.337155599999999919e-07
2.880000000000000000e+02 2.404573550000000110e-07
2.940000000000000000e+02 1.685448750000000013e-07
