# MET [GeV], dσ/d(MET) [pb/GeV]
1.000000000000000000e+00 9.435450520040079836e-02
1.098000000000000043e+01 2.434753587174348366e-01
2.096000000000000085e+01 3.473971969238476842e-01
3.094000000000000128e+01 4.119181669839679372e-01
4.092000000000000171e+01 4.432187972344689419e-01
5.090000000000000568e+01 4.615496824148296318e-01
6.088000000000000256e+01 4.689163727555110128e-01
7.085999999999999943e+01 4.663567600100200217e-01
8.084000000000000341e+01 4.574371338877755155e-01
9.082000000000000739e+01 4.384351307314628965e-01
1.008000000000000114e+02 4.172871107915832045e-01
1.107800000000000011e+02 3.920811682064128112e-01
1.207600000000000051e+02 3.653222898396793483e-01
1.307400000000000091e+02 3.357540804108216648e-01
1.407199999999999989e+02 3.095180497695390609e-01
1.507000000000000171e+02 2.838282779458917715e-01
1.606800000000000068e+02 2.574751918436873899e-01
1.706599999999999966e+02 2.282113266132264617e-01
1.806400000000000148e+02 2.063375628156312314e-01
1.906200000000000045e+02 1.805931651102204438e-01
2.006000000000000227e+02 1.612321918737474880e-01
2.105800000000000125e+02 1.380630143086172268e-01
2.205600000000000023e+02 1.209573096192384650e-01
2.305400000000000205e+02 1.035394570340681386e-01
2.405200000000000102e+02 8.835346190380762021e-02
2.505000000000000000e+02 7.381517365731463109e-02
2.604800000000000182e+02 6.107953950901803125e-02
2.704600000000000364e+02 5.119225490981964277e-02
2.804399999999999977e+02 4.236627315631262547e-02
2.904200000000000159e+02 3.478888298597194312e-02
3.004000000000000341e+02 2.877223229458917772e-02
3.103799999999999955e+02 2.154600850701402989e-02
3.203600000000000136e+02 1.744906737474949746e-02
3.303400000000000318e+02 1.350820019038076122e-02
3.403199999999999932e+02 1.019943249498998089e-02
3.503000000000000114e+02 7.772482605210420670e-03
3.602800000000000296e+02 6.086883967935871609e-03
3.702599999999999909e+02 4.245211382765531546e-03
3.802400000000000091e+02 2.770312575150300684e-03
3.902200000000000273e+02 2.021157625250501102e-03
4.002000000000000455e+02 1.303217464929859763e-03
4.101800000000000068e+02 8.974252004008016195e-04
4.201600000000000250e+02 5.462588176352704567e-04
4.301400000000000432e+02 4.448107515030060022e-04
4.401200000000000045e+02 2.341109218436873425e-04
4.501000000000000227e+02 1.170554609218436712e-04
4.600800000000000409e+02 1.014480661322645223e-04
4.700600000000000023e+02 3.121478957915831820e-05
4.800400000000000205e+02 7.803697394789579550e-06
4.900200000000000387e+02 7.803697394789579550e-06
