# pT [GeV], dσ/dpT [pb/GeV]
0.000000000000000000e+00 0.000000000000000000e+00
1.000000000000000000e+01 2.343747804599999873e-01
2.000000000000000000e+01 3.420451247099999814e-01
3.000000000000000000e+01 4.067096359799999838e-01
4.000000000000000000e+01 4.477450821899999767e-01
5.000000000000000000e+01 4.672308833699999608e-01
6.000000000000000000e+01 4.747152378600000278e-01
7.000000000000000000e+01 4.715454852299999500e-01
8.000000000000000000e+01 4.581032418900000680e-01
9.000000000000000000e+01 4.415223982799999503e-01
1.000000000000000000e+02 4.246378191599999852e-01
1.100000000000000000e+02 3.950508652499999940e-01
1.200000000000000000e+02 3.702613747799999855e-01
1.300000000000000000e+02 3.427460528100000348e-01
1.400000000000000000e+02 3.158693542200000093e-01
1.500000000000000000e+02 2.897481003600000382e-01
1.600000000000000000e+02 2.597094372300000065e-01
1.700000000000000000e+02 2.337361570800000066e-01
1.800000000000000000e+02 2.091413688599999821e-01
1.900000000000000000e+02 1.851384754800000088e-01
2.000000000000000000e+02 1.610966416499999831e-01
2.100000000000000000e+02 1.426778088000000000e-01
2.200000000000000000e+02 1.249521159599999987e-01
2.300000000000000000e+02 1.058012026499999952e-01
2.400000000000000000e+02 8.946178982999999918e-02
2.500000000000000000e+02 7.741361459999999972e-02
2.600000000000000000e+02 6.324707889000000249e-02
2.700000000000000000e+02 5.344966167000000240e-02
2.800000000000000000e+02 4.445441772000000014e-02
2.900000000000000000e+02 3.526447152000000002e-02
3.000000000000000000e+02 2.839537614000000113e-02
3.100000000000000000e+02 2.251536819000000272e-02
3.200000000000000000e+02 1.701697665000000137e-02
3.300000000000000000e+02 1.411201907999999963e-02
3.400000000000000000e+02 1.020239790000000007e-02
3.500000000000000000e+02 8.185282589999998831e-03
3.600000000000000000e+02 5.506179630000000019e-03
3.700000000000000000e+02 4.431423210000000334e-03
3.800000000000000000e+02 3.138600269999999859e-03
3.900000000000000000e+02 2.289698460000000064e-03
4.000000000000000000e+02 1.690015530000000057e-03
4.100000000000000000e+02 1.028027880000000104e-03
4.200000000000000000e+02 6.931400100000000356e-04
4.300000000000000000e+02 5.140139400000000519e-04
4.400000000000000000e+02 3.037355099999999863e-04
4.500000000000000000e+02 1.012451699999999954e-04
4.600000000000000000e+02 8.566898999999999511e-05
4.700000000000000000e+02 1.557618000000000034e-05
4.800000000000000000e+02 7.788090000000000171e-06
4.900000000000000000e+02 0.000000000000000000e+00
