# pT [GeV], dσ/dpT [pb/GeV]
0.000000000000000000e+00 0.000000000000000000e+00
6.000000000000000000e+00 6.562018666666666569e-07
1.200000000000000000e+01 1.554434353333333354e-05
1.800000000000000000e+01 4.855669086666666422e-05
2.400000000000000000e+01 9.868422113333334374e-05
3.000000000000000000e+01 1.616054405333333319e-04
3.600000000000000000e+01 2.586671351333333650e-04
4.200000000000000000e+01 3.094126637333333347e-04
4.800000000000000000e+01 2.776093458666666915e-04
5.400000000000000000e+01 2.291695128666666574e-04
6.000000000000000000e+01 1.841185580000000079e-04
6.600000000000000000e+01 1.431216721999999954e-04
7.200000000000000000e+01 1.120801777333333381e-04
7.800000000000000000e+01 8.739844793333332109e-05
8.400000000000000000e+01 6.712136080000000767e-05
9.000000000000000000e+01 5.213209213333333319e-05
9.600000000000000000e+01 3.986875793333333537e-05
1.020000000000000000e+02 3.089092760000000285e-05
1.080000000000000000e+02 2.449745393333333473e-05
1.140000000000000000e+02 1.952425280000000030e-05
1.200000000000000000e+02 1.493533426666666699e-05
1.260000000000000000e+02 1.210377826666666553e-05
1.320000000000000000e+02 9.834038933333332750e-06
1.380000000000000000e+02 7.755317266666666439e-06
1.440000000000000000e+02 6.126048933333333545e-06
1.500000000000000000e+02 5.283323933333333071e-06
1.560000000000000000e+02 4.110250733333333896e-06
1.620000000000000000e+02 3.427081666666666984e-06
1.680000000000000000e+02 2.901221266666666302e-06
1.740000000000000000e+02 2.597840266666666691e-06
1.800000000000000000e+02 2.245019400000000175e-06
1.860000000000000000e+02 1.988831000000000136e-06
1.920000000000000000e+02 1.692191800000000191e-06
1.980000000000000000e+02 1.382069000000000065e-06
2.040000000000000000e+02 1.238243933333333381e-06
2.100000000000000000e+02 1.092171599999999999e-06
2.160000000000000000e+02 1.002280933333333400e-06
2.220000000000000000e+02 7.303616666666665902e-07
2.280000000000000000e+02 7.640706666666667235e-07
2.340000000000000000e+02 6.269874000000000230e-07
2.400000000000000000e+02 6.449655333333332792e-07
2.460000000000000000e+02 5.438385333333333028e-07
2.520000000000000000e+02 4.809150666666666414e-07
2.580000000000000000e+02 4.404642666666666826e-07
2.640000000000000000e+02 3.123700666666666631e-07
2.700000000000000000e+02 3.213591333333333442e-07
2.760000000000000000e+02 2.943919333333333011e-07
2.820000000000000000e+02 2.337157333333333099e-07
2.880000000000000000e+02 2.404575333333333207e-07
2.940000000000000000e+02 1.685450000000000048e-07
