# MET [GeV], dσ/d(MET) [pb/GeV]
1.000000000000000000e+00 5.419305548872179308e-05
8.980000000000000426e+00 1.530730615037593774e-04
1.696000000000000085e+01 2.436494177443608567e-04
2.494000000000000128e+01 2.758335867167919717e-04
3.292000000000000171e+01 2.506387960401002327e-04
4.090000000000000568e+01 2.014826343859648814e-04
4.888000000000000256e+01 1.521561679197994826e-04
5.685999999999999943e+01 1.111023867167919657e-04
6.484000000000000341e+01 8.039591303258144357e-05
7.282000000000000739e+01 5.712952330827066706e-05
8.080000000000001137e+01 3.973606922305763850e-05
8.878000000000000114e+01 2.800395994987468282e-05
9.676000000000000512e+01 2.039873192982455960e-05
1.047400000000000091e+02 1.432280671679197805e-05
1.127199999999999989e+02 1.052793383458646544e-05
1.207000000000000028e+02 7.271499398496238808e-06
1.286800000000000068e+02 5.365461704260650372e-06
1.366599999999999966e+02 3.796593132832079709e-06
1.446400000000000148e+02 2.671549223057643667e-06
1.526200000000000045e+02 2.023014736842104945e-06
1.606000000000000227e+02 1.427808020050125282e-06
1.685800000000000125e+02 1.063114887218044850e-06
1.765600000000000023e+02 7.534697744360900529e-07
1.845400000000000205e+02 6.640167418546365201e-07
1.925200000000000102e+02 4.472651629072681407e-07
2.005000000000000000e+02 3.354488721804510923e-07
2.084800000000000182e+02 2.993236090225563536e-07
2.164600000000000080e+02 2.184718295739348220e-07
2.244399999999999977e+02 1.324592982456140155e-07
2.324200000000000159e+02 1.100960401002506058e-07
2.404000000000000057e+02 1.049352882205513574e-07
2.483800000000000239e+02 7.569102756892229646e-08
2.563600000000000136e+02 5.504802005012530291e-08
2.643400000000000318e+02 4.300626566416039662e-08
2.723199999999999932e+02 3.268476190476190646e-08
2.803000000000000114e+02 2.236325814536340637e-08
2.882800000000000296e+02 2.236325814536340637e-08
2.962599999999999909e+02 1.376200501253132573e-08
3.042400000000000091e+02 1.032150375939849512e-08
3.122200000000000273e+02 5.160751879699247561e-09
3.202000000000000455e+02 8.601253132832078993e-09
3.281800000000000068e+02 3.440501253132831432e-09
3.361600000000000250e+02 5.160751879699247561e-09
3.441400000000000432e+02 3.440501253132831432e-09
3.521200000000000045e+02 1.720250626566415716e-09
3.601000000000000227e+02 0.000000000000000000e+00
3.680800000000000409e+02 1.720250626566415716e-09
3.760600000000000023e+02 0.000000000000000000e+00
3.840400000000000205e+02 0.000000000000000000e+00
3.920200000000000387e+02 0.000000000000000000e+00
