# pT [GeV], dσ/dpT [pb/GeV]
0.000000000000000000e+00 0.000000000000000000e+00
1.000000000000000000e+01 9.267827100000001084e-04
2.000000000000000000e+01 8.598051360000000948e-03
3.000000000000000000e+01 4.207905027000000131e-02
4.000000000000000000e+01 1.231764314400000115e-01
5.000000000000000000e+01 1.840481428799999875e-01
6.000000000000000000e+01 2.369292739800000214e-01
7.000000000000000000e+01 2.866406524499999775e-01
8.000000000000000000e+01 3.307601823000000385e-01
9.000000000000000000e+01 3.723096424499999779e-01
1.000000000000000000e+02 4.050507728100000149e-01
1.100000000000000000e+02 4.319430475800000169e-01
1.200000000000000000e+02 4.489911765900000407e-01
1.300000000000000000e+02 4.557200863500000532e-01
1.400000000000000000e+02 4.556344173600000436e-01
1.500000000000000000e+02 4.517170080899999829e-01
1.600000000000000000e+02 4.280256383100000117e-01
1.700000000000000000e+02 4.055569986600000010e-01
1.800000000000000000e+02 3.800354277300000416e-01
1.900000000000000000e+02 3.480419540100000431e-01
2.000000000000000000e+02 3.120531901199999902e-01
2.100000000000000000e+02 2.763370093799999982e-01
2.200000000000000000e+02 2.422251751800000297e-01
2.300000000000000000e+02 2.088532095300000280e-01
2.400000000000000000e+02 1.777320018899999909e-01
2.500000000000000000e+02 1.497571826099999837e-01
2.600000000000000000e+02 1.269614431799999943e-01
2.700000000000000000e+02 1.055519837700000102e-01
2.800000000000000000e+02 8.528737359000000684e-02
2.900000000000000000e+02 6.964888887000000861e-02
3.000000000000000000e+02 5.640913587000000173e-02
3.100000000000000000e+02 4.524880290000000277e-02
3.200000000000000000e+02 3.461027196000000111e-02
3.300000000000000000e+02 2.734398398999999744e-02
3.400000000000000000e+02 2.052161715000000095e-02
3.500000000000000000e+02 1.524129213000000038e-02
3.600000000000000000e+02 1.123821387000000123e-02
3.700000000000000000e+02 8.746025069999999874e-03
3.800000000000000000e+02 6.082498290000000127e-03
3.900000000000000000e+02 4.228932870000000344e-03
4.000000000000000000e+02 2.881593300000000104e-03
4.100000000000000000e+02 1.900293960000000015e-03
4.200000000000000000e+02 1.433008560000000086e-03
4.300000000000000000e+02 7.009281000000000018e-04
4.400000000000000000e+02 4.361330400000000096e-04
4.500000000000000000e+02 1.479737100000000100e-04
4.600000000000000000e+02 1.947022499999999975e-04
4.700000000000000000e+02 7.009280999999999476e-05
4.800000000000000000e+02 3.115236000000000068e-05
4.900000000000000000e+02 7.788090000000000171e-06
