# pT [GeV], dσ/dpT [pb/GeV]
0.000000000000000000e+00 0.000000000000000000e+00
6.000000000000000000e+00 6.543489333333333789e-07
1.200000000000000000e+01 1.458328706666666583e-05
1.800000000000000000e+01 4.569231659999999627e-05
2.400000000000000000e+01 9.251716019999998942e-05
3.000000000000000000e+01 1.523534806666666623e-04
3.600000000000000000e+01 2.414112856666666420e-04
4.200000000000000000e+01 3.113168007333332759e-04
4.800000000000000000e+01 2.873186679999999897e-04
5.400000000000000000e+01 2.415760168666666386e-04
6.000000000000000000e+01 1.960804625333333094e-04
6.600000000000000000e+01 1.559661273999999773e-04
7.200000000000000000e+01 1.208875335333333139e-04
7.800000000000000000e+01 9.421251880000000177e-05
8.400000000000000000e+01 7.369204473333332837e-05
9.000000000000000000e+01 5.678192946666666156e-05
9.600000000000000000e+01 4.416168919999999406e-05
1.020000000000000000e+02 3.459126406666666002e-05
1.080000000000000000e+02 2.681686659999999727e-05
1.140000000000000000e+02 2.068749319999999537e-05
1.200000000000000000e+02 1.620543180000000004e-05
1.260000000000000000e+02 1.232052099999999743e-05
1.320000000000000000e+02 9.854128866666665452e-06
1.380000000000000000e+02 7.641697333333331602e-06
1.440000000000000000e+02 6.115645799999999640e-06
1.500000000000000000e+02 4.832115199999999099e-06
1.560000000000000000e+02 3.919229799999999357e-06
1.620000000000000000e+02 3.116165199999999883e-06
1.680000000000000000e+02 2.388602399999999694e-06
1.740000000000000000e+02 2.015669266666666314e-06
1.800000000000000000e+02 1.537491199999999733e-06
1.860000000000000000e+02 1.331577199999999759e-06
1.920000000000000000e+02 1.029569999999999868e-06
1.980000000000000000e+02 8.190801333333333578e-07
2.040000000000000000e+02 7.046834666666666588e-07
2.100000000000000000e+02 4.873297999999999729e-07
2.160000000000000000e+02 4.324193999999999446e-07
2.220000000000000000e+02 3.683572666666666842e-07
2.280000000000000000e+02 2.562485333333333064e-07
2.340000000000000000e+02 2.356571333333333355e-07
2.400000000000000000e+02 2.013381333333333311e-07
2.460000000000000000e+02 1.510035999999999718e-07
2.520000000000000000e+02 1.166845999999999806e-07
2.580000000000000000e+02 8.922939999999999298e-08
2.640000000000000000e+02 1.235483999999999842e-07
2.700000000000000000e+02 6.863799999999999562e-08
2.760000000000000000e+02 4.347073333333333585e-08
2.820000000000000000e+02 2.974313333333333210e-08
2.880000000000000000e+02 3.660693333333333232e-08
2.940000000000000000e+02 3.889486666666666683e-08
