# pT [GeV], dσ/dpT [pb/GeV]
0.000000000000000000e+00 0.000000000000000000e+00
1.000000000000000000e+01 1.954810590000000212e-03
2.000000000000000000e+01 1.424441660999999949e-02
3.000000000000000000e+01 5.186089131000000407e-02
4.000000000000000000e+01 1.365330057899999949e-01
5.000000000000000000e+01 1.925916776100000116e-01
6.000000000000000000e+01 2.407376499900000244e-01
7.000000000000000000e+01 2.823649910400000129e-01
8.000000000000000000e+01 3.290156501400000044e-01
9.000000000000000000e+01 3.652224805500000060e-01
1.000000000000000000e+02 4.034620024499999680e-01
1.100000000000000000e+02 4.269353057099999904e-01
1.200000000000000000e+02 4.452840457499999682e-01
1.300000000000000000e+02 4.552683771300000126e-01
1.400000000000000000e+02 4.542403492500000084e-01
1.500000000000000000e+02 4.449803102399999544e-01
1.600000000000000000e+02 4.299726608100000180e-01
1.700000000000000000e+02 4.067330002500000319e-01
1.800000000000000000e+02 3.767410656599999852e-01
1.900000000000000000e+02 3.438519615900000326e-01
2.000000000000000000e+02 3.090781397400000352e-01
2.100000000000000000e+02 2.740706751900000016e-01
2.200000000000000000e+02 2.421005657399999955e-01
2.300000000000000000e+02 2.074279890600000120e-01
2.400000000000000000e+02 1.799282432700000101e-01
2.500000000000000000e+02 1.511746149900000113e-01
2.600000000000000000e+02 1.245237710100000061e-01
2.700000000000000000e+02 1.054273743300000038e-01
2.800000000000000000e+02 8.602724214000000147e-02
2.900000000000000000e+02 6.889344414000000971e-02
3.000000000000000000e+02 5.677517610000000492e-02
3.100000000000000000e+02 4.390146333000000123e-02
3.200000000000000000e+02 3.591088298999999678e-02
3.300000000000000000e+02 2.682997005000000226e-02
3.400000000000000000e+02 2.063065040999999961e-02
3.500000000000000000e+02 1.563848472000000170e-02
3.600000000000000000e+02 1.164319455000000121e-02
3.700000000000000000e+02 8.395561020000000957e-03
3.800000000000000000e+02 5.809915140000000006e-03
3.900000000000000000e+02 3.948561629999999822e-03
4.000000000000000000e+02 2.990626560000000066e-03
4.100000000000000000e+02 2.017115310000000376e-03
4.200000000000000000e+02 1.331763390000000090e-03
4.300000000000000000e+02 6.931400100000000356e-04
4.400000000000000000e+02 4.517092200000000506e-04
4.500000000000000000e+02 2.336426999999999916e-04
4.600000000000000000e+02 1.323975300000000232e-04
4.700000000000000000e+02 7.009280999999999476e-05
4.800000000000000000e+02 2.336427000000000051e-05
4.900000000000000000e+02 1.557618000000000034e-05
