# C_j, dσ/d(C_j) [pb]
0.000000000000000000e+00 2.572069499999999888e-05
1.199999999999999956e-01 4.526174250000000027e-05
2.399999999999999911e-01 8.334173250000000090e-05
3.599999999999999867e-01 1.586666250000000116e-04
4.799999999999999822e-01 2.665599300000000586e-04
5.999999999999999778e-01 3.896518275000000276e-04
7.199999999999999734e-01 5.858973900000000049e-04
8.399999999999999689e-01 8.021850524999999711e-04
9.599999999999999645e-01 1.075759717500000085e-03
1.080000000000000071e+00 1.372382797500000182e-03
1.199999999999999956e+00 1.699904115000000103e-03
1.319999999999999840e+00 2.106758745000000300e-03
1.439999999999999947e+00 2.513446357499999999e-03
1.560000000000000053e+00 2.987442022500000002e-03
1.679999999999999938e+00 3.432877695000000236e-03
1.799999999999999822e+00 4.036812974999999873e-03
1.919999999999999929e+00 4.593482302500000169e-03
2.040000000000000036e+00 5.186895480000000211e-03
2.160000000000000142e+00 5.733209722500000327e-03
2.279999999999999805e+00 6.296726767500000939e-03
2.399999999999999911e+00 6.789428392500000513e-03
2.520000000000000018e+00 7.245553185000000625e-03
2.639999999999999680e+00 7.549525035000000800e-03
2.759999999999999787e+00 7.732075162500001014e-03
2.879999999999999893e+00 7.876211265000000392e-03
3.000000000000000000e+00 7.847651272500000622e-03
3.120000000000000107e+00 7.785019710000000426e-03
3.239999999999999769e+00 7.547520825000000877e-03
3.359999999999999876e+00 7.248893535000000207e-03
3.479999999999999982e+00 6.917864850000000204e-03
3.599999999999999645e+00 6.508838992500000885e-03
3.719999999999999751e+00 6.169459432499999757e-03
3.839999999999999858e+00 5.732875687500000629e-03
3.959999999999999964e+00 5.328192284999999986e-03
4.080000000000000071e+00 4.918832392500000102e-03
4.200000000000000178e+00 4.430640240000000354e-03
4.320000000000000284e+00 3.925746337500000092e-03
4.439999999999999503e+00 3.351874207500000168e-03
4.559999999999999609e+00 2.818921365000000116e-03
4.679999999999999716e+00 2.238201517499999876e-03
4.799999999999999822e+00 1.632429044999999948e-03
4.919999999999999929e+00 1.080436207500000195e-03
5.040000000000000036e+00 5.793837075000000383e-04
5.160000000000000142e+00 2.400041474999999947e-04
5.279999999999999361e+00 9.352980000000000701e-05
5.399999999999999467e+00 2.939508000000000114e-05
5.519999999999999574e+00 5.511577500000000002e-06
5.639999999999999680e+00 1.670175000000000065e-07
5.759999999999999787e+00 1.670175000000000065e-07
5.879999999999999893e+00 1.670175000000000065e-07
