# C_j, dσ/d(C_j) [pb]
0.000000000000000000e+00 1.897268716666666681e-03
1.199999999999999956e-01 2.071838029999999772e-03
2.399999999999999911e-01 2.424751746666666593e-03
3.599999999999999867e-01 2.899040326666666671e-03
4.799999999999999822e-01 3.313041863333332851e-03
5.999999999999999778e-01 3.701532943333332888e-03
7.199999999999999734e-01 4.087049709999999482e-03
8.399999999999999689e-01 4.379905176666666448e-03
9.599999999999999645e-01 4.669099949999999145e-03
1.080000000000000071e+00 4.843097279999999082e-03
1.199999999999999956e+00 4.936559356666666773e-03
1.319999999999999840e+00 5.038715580000000319e-03
1.439999999999999947e+00 5.047524123333333411e-03
1.560000000000000053e+00 5.011946760000000195e-03
1.679999999999999938e+00 4.956121186666666463e-03
1.799999999999999822e+00 4.892173449999999597e-03
1.919999999999999929e+00 4.742657006666666300e-03
2.040000000000000036e+00 4.618651019999999580e-03
2.160000000000000142e+00 4.470736129999999808e-03
2.279999999999999805e+00 4.237252533333333605e-03
2.399999999999999911e+00 4.000451433333333112e-03
2.520000000000000018e+00 3.776920346666666310e-03
2.639999999999999680e+00 3.509804129999999529e-03
2.759999999999999787e+00 3.234336956666666440e-03
2.879999999999999893e+00 2.956467453333333061e-03
3.000000000000000000e+00 2.646910073333333044e-03
3.120000000000000107e+00 2.329916909999999852e-03
3.239999999999999769e+00 2.037747823333333277e-03
3.359999999999999876e+00 1.730478376666666528e-03
3.479999999999999982e+00 1.477089760000000005e-03
3.599999999999999645e+00 1.210659923333333183e-03
3.719999999999999751e+00 9.521234566666666446e-04
3.839999999999999858e+00 7.531876533333332858e-04
3.959999999999999964e+00 5.425833899999999788e-04
4.080000000000000071e+00 4.008459199999999441e-04
4.200000000000000178e+00 2.629979366666666493e-04
4.320000000000000284e+00 1.579817966666666542e-04
4.439999999999999503e+00 9.117414333333332570e-05
4.559999999999999609e+00 5.147849999999999849e-05
4.679999999999999716e+00 2.242174666666666455e-05
4.799999999999999822e+00 8.007766666666666394e-06
4.919999999999999929e+00 3.431899999999999702e-06
5.040000000000000036e+00 6.863799999999999827e-07
5.160000000000000142e+00 0.000000000000000000e+00
5.279999999999999361e+00 0.000000000000000000e+00
5.399999999999999467e+00 0.000000000000000000e+00
5.519999999999999574e+00 0.000000000000000000e+00
5.639999999999999680e+00 0.000000000000000000e+00
5.759999999999999787e+00 0.000000000000000000e+00
5.879999999999999893e+00 0.000000000000000000e+00
