# C_j, dσ/d(C_j) [pb]
0.000000000000000000e+00 2.855429333333333632e-03
1.199999999999999956e-01 4.615170666666666352e-03
2.399999999999999911e-01 9.213739999999999777e-03
3.599999999999999867e-01 1.638551599999999928e-02
4.799999999999999822e-01 2.621350533333333468e-02
5.999999999999999778e-01 3.863130266666666562e-02
7.199999999999999734e-01 5.850309866666666275e-02
8.399999999999999689e-01 7.907215066666667402e-02
9.599999999999999645e-01 1.013511399999999923e-01
1.080000000000000071e+00 1.300714466666666735e-01
1.199999999999999956e+00 1.645524160000000069e-01
1.319999999999999840e+00 2.046778386666666671e-01
1.439999999999999947e+00 2.488705880000000037e-01
1.560000000000000053e+00 3.002683160000000351e-01
1.679999999999999938e+00 3.541728453333333193e-01
1.799999999999999822e+00 4.167432706666666653e-01
1.919999999999999929e+00 4.815548760000000206e-01
2.040000000000000036e+00 5.487902759999999658e-01
2.160000000000000142e+00 6.208068599999999604e-01
2.279999999999999805e+00 6.817171519999999374e-01
2.399999999999999911e+00 7.447192120000000193e-01
2.520000000000000018e+00 7.952204680000000137e-01
2.639999999999999680e+00 8.259827386666666049e-01
2.759999999999999787e+00 8.457383253333333739e-01
2.879999999999999893e+00 8.538397760000000503e-01
3.000000000000000000e+00 8.385831506666666657e-01
3.120000000000000107e+00 8.178314839999999419e-01
3.239999999999999769e+00 7.642755826666667307e-01
3.359999999999999876e+00 7.263249346666665884e-01
3.479999999999999982e+00 6.790443373333333588e-01
3.599999999999999645e+00 6.220851626666665801e-01
3.719999999999999751e+00 5.723309666666667184e-01
3.839999999999999858e+00 5.123503493333333436e-01
3.959999999999999964e+00 4.631439973333333349e-01
4.080000000000000071e+00 4.128585586666666529e-01
4.200000000000000178e+00 3.649471106666666298e-01
4.320000000000000284e+00 3.132505586666666786e-01
4.439999999999999503e+00 2.682775466666666997e-01
4.559999999999999609e+00 2.230721160000000147e-01
4.679999999999999716e+00 1.748120400000000019e-01
4.799999999999999822e+00 1.281954959999999921e-01
4.919999999999999929e+00 8.408575333333333235e-02
5.040000000000000036e+00 4.772883333333333145e-02
5.160000000000000142e+00 2.136591599999999869e-02
5.279999999999999361e+00 8.632693333333331734e-03
5.399999999999999467e+00 3.038044000000000161e-03
5.519999999999999574e+00 4.648373333333333289e-04
5.639999999999999680e+00 6.640533333333333271e-05
5.759999999999999787e+00 0.000000000000000000e+00
5.879999999999999893e+00 0.000000000000000000e+00
